t_now,theta,Lcool,Lleak,Lmech,R2
0.0034166627538203356,0.08018428840230653,8131573.964294383,0.0,101411063.51778108,0.9507417452781599
0.003813826871182476,0.08357809133140927,8475752.445087383,0.0,101411174.98698048,1.0135190520467663
0.004129305543422572,0.08618036887189896,8739657.967836298,0.0,101411238.80343542,1.0615980185158638
0.0043798991602362084,0.0881824889341511,8942698.547728961,0.0,101411274.00482859,1.0987302187127672
0.0046953778324763055,0.09059867908928168,9187729.729496866,0.0,101411298.94888087,1.144244111891876
0.004945971449289942,0.0924705315787345,9377557.139934318,0.0,101411303.46968699,1.179505672494847
0.005261450121530039,0.09474938073442161,9608656.93048463,0.0,101411290.03700063,1.2228516498385882
0.00565861423889218,0.0975276357205238,9890398.769119311,0.0,101411243.03947386,1.2759252811708863
0.005974092911132276,0.09969783610326116,10110475.401887063,0.0,101411181.99812508,1.3170043084259144
0.006371257028494417,0.10235032035594036,10379456.071138233,0.0,101411075.55933326,1.367456655370226
0.006871257028494417,0.10557092626095985,10706042.129161024,0.0,101410895.10474554,1.42917100762238
0.007268421145856558,0.10693079941888949,10843928.850262467,0.0,101410715.24007395,1.4768961754459045
0.007768421145856559,0.11003323831014482,11158519.478553362,0.0,101410443.33441718,1.5354619896754533
0.0081655852632187,0.11242089028930961,11400624.025351023,0.0,101410191.61129288,1.5808836727471671
0.0086655852632187,0.1153505582938051,11697680.533261435,0.0,101409830.22784086,1.6367785357112452
0.009295047969115783,0.11892004943699731,12059599.64239529,0.0,101409305.65946618,1.705300799533908
0.009795047969115784,0.12167925926528099,12339351.857123155,0.0,101408834.43596019,1.7583969869067955
0.010424510675012866,0.12500962976216767,12676998.231061928,0.0,101408173.55574982,1.8236786298492058
0.011216957271243423,0.1303396974890101,13217388.478621906,0.0,101407236.11650519,1.9036301661904516
0.011846419977140506,0.1332198988786183,13509351.583024643,0.0,101406409.2282004,1.9655279355321513
0.012638866573371063,0.13666864566249495,13858920.466352463,0.0,101405266.72501938,2.0415628935784076
0.013636497730855502,0.1407756304717109,14275165.723264553,0.0,101403671.04328594,2.1345810367913294
0.014428944327086059,0.1439117275385644,14592977.514221068,0.0,101402281.55006026,2.206516175718004
0.015426575484570498,0.14766633097335813,14973422.481968155,0.0,101400382.7634185,2.294786953078891
0.016219022080801056,0.15054565366061196,15265142.413482483,0.0,101398758.73066393,2.3632378870436415
0.017216653238285497,0.1540310821852492,15618223.794111699,0.0,101396572.51338445,2.4474503412567263
0.01847259645404029,0.15824571682863114,16045103.344995983,0.0,101393602.72462659,2.550646873695774
0.01947022761152473,0.1615105899028419,16375732.647626063,0.0,101391076.94100447,2.630575603820107
0.02072617082727952,0.16549084338872747,16778735.204550438,0.0,101387695.30068958,2.728797901616952
0.02230730965736371,0.17034510655083174,17270120.454863485,0.0,101383132.18706992,2.8490129360829703
0.0235632528731185,0.1741419247213263,17654382.341015883,0.0,101379276.52555592,2.9420197569188384
0.025144391703202693,0.17880344536659534,18126046.907541007,0.0,101374147.85480066,3.0561961311176797
0.02713492755597018,0.18310853687442705,18561215.050890736,0.0,101367283.94929902,3.1957794604838696
0.028716066386054367,0.18727775341642125,18982759.99805339,0.0,101361532.01199661,3.3036626587053877
0.030706602238821854,0.19224922586545387,19485217.601729475,0.0,101353945.71297914,3.435973645261241
0.03228774106890604,0.1959350210825183,19857557.74194255,0.0,101347669.40709141,3.538519197197095
0.034278276921673526,0.20044296718531832,20312787.110472478,0.0,101339485.21971546,3.6646044901325108
0.036784213089809885,0.20595958006718013,20869634.978315473,0.0,101328789.71450704,3.8190022330621236
0.038774748942577375,0.2102260856268447,21300113.274182197,0.0,101320029.86532463,3.938502783313267
0.041280685110713734,0.21907846351193405,22194561.75330682,0.0,101308733.85506375,4.085249918327006
0.0444354718331147,0.22511796258377362,22803143.90478612,0.0,101294199.90774988,4.264698530171713
0.04694140800125106,0.22969750176169082,23264337.483520277,0.0,101282501.13776521,4.40341178985712
0.050096194723652024,0.2311571626536308,23408756.04462626,0.0,101267707.9779798,4.573543806693346
0.05406783589727343,0.2377683512522079,24073856.258013785,0.0,101249203.82056203,4.781299937359551
0.057222622619674396,0.24286256756848815,24586140.81313281,0.0,101234789.1208036,4.941700623425291
0.0611942637932958,0.25378216079347854,25687133.913446806,0.0,101217255.90614048,5.138227238761267
0.06434905051569677,0.25827809291458037,26138777.468922332,0.0,101204005.2408438,5.290409611241839
0.06832069168931817,0.2637010540722328,26683496.164750136,0.0,101188431.94855417,5.477376077250447
0.07332069168931818,0.2702448171464047,27340945.80272429,0.0,101171027.40924123,5.706099940438828
0.07729233286293959,0.26989194694028495,27302087.91825275,0.0,101159327.75235227,5.8829550346015225
0.08229233286293959,0.2763011399533274,27947248.704853956,0.0,101147786.46796313,6.09992435517086
0.08858695992191043,0.2841195016044874,28735617.95423071,0.0,101139195.97899526,6.364947085116882
0.09358695992191043,0.29633375915161636,29970556.886130236,0.0,101137841.91154571,6.569608058877914
0.09988158698088127,0.30345559399929595,30692726.245331027,0.0,101144044.96824743,6.820414168663925
0.10780605294318685,0.3056605115443467,30922499.221834384,0.0,101166156.74559583,7.126369202236411
0.11410068000215769,0.3124391456406421,31617744.197065465,0.0,101196487.82240373,7.362324833233694
0.12202514596446326,0.32029790504106215,32430399.289965395,0.0,101250738.077128,7.65108984837283
0.1283197730234341,0.3251670231383521,32941239.151408948,0.0,101305596.22398457,7.875416081802074
0.13624423898573967,0.33566847190309623,34032787.838373125,0.0,101388097.74245945,8.153114290733864
0.14622055056058408,0.34211882931967674,34728784.542689554,0.0,101510883.25582597,8.49543716169528
0.15414501652288964,0.3472923500626197,35292345.26021958,0.0,101621430.05412033,8.76172343817049
0.16412132809773405,0.3535651950671762,35983831.02594268,0.0,101774245.67796011,9.089904746419517
0.17668076025528195,0.3622793591821234,36946521.41132938,0.0,101983512.10165356,9.492537615083563
0.18665707183012636,0.3671553785946305,37508272.994102955,0.0,102159127.1185357,9.804538956879732
0.19921650398767426,0.3729130312243198,38181285.30550362,0.0,102386567.66739881,10.187889674047883
0.21502789228851618,0.37967521372382484,38982611.436946586,0.0,102673574.74987155,10.656691329896807
0.22758732444606408,0.39449680155021866,40592493.70484884,0.0,102896889.26586011,11.018930093004077
0.243398712746906,0.40071045934333727,41341902.29638668,0.0,103171507.83669476,11.462872720406894
0.2559581449044539,0.39367105954234644,40699486.30021943,0.0,103384501.63833155,11.806640511835578
0.2717695332052958,0.40070786963298916,41531854.228063814,0.0,103646215.54875651,12.228892076750915
0.2916748917329707,0.4091170020666579,42534087.77937991,0.0,103965583.35272945,12.745347779365073
0.30748628003381256,0.415619696721924,43312269.943041824,0.0,104211302.50720645,13.144668791405206
0.32739163856148745,0.42354188392266656,44264802.912296265,0.0,104511040.33049649,13.634615424265304
0.3524510002428511,0.4332105129883784,45433755.99586603,0.0,104876854.63229944,14.233195646629323
0.372356358770526,0.44073739915960164,46348846.26336982,0.0,105162045.13560191,14.69554972497121
0.3974157204518896,0.44998147409739275,47481788.41261354,0.0,105519429.45619293,15.262305277577942
0.4289635876758993,0.46146490262306034,48903744.629114576,0.0,105975003.41008763,15.954018259536252
0.45402294935726295,0.4694255243796898,49920007.81234436,0.0,106342764.12282833,16.48782441876923
0.48557081658127266,0.47855082968415025,51113674.91939962,0.0,106809291.19511779,17.14160794797658
0.5106301782626363,0.4855771536119556,52044015.66059065,0.0,107179704.13859531,17.64771005388469
0.542178045486646,0.4868980794159372,52411607.90368095,0.0,107643899.45130149,18.269348878090554
0.5818944572228602,0.4959224804404371,53675394.2223566,0.0,108233436.35216251,19.02970405786123
0.6134423244468699,0.5025082087841242,54629980.16993307,0.0,108714602.4979702,19.61761528183739
0.653158736183084,0.5462484026077046,59724254.87864721,0.0,109335340.10082765,20.349553859738243
0.703158736183084,0.5236538723734451,57643378.87233265,0.0,110079160.89890791,21.334838346917866
0.753158736183084,0.5210152237898661,57686748.32107483,0.0,110719890.10505542,22.409699521616734
0.8031587361830841,0.5122030415564373,57035730.45224313,0.0,111353751.97876218,23.572518406989015
0.8531587361830841,0.49302041375191635,55270059.96833995,0.0,112105013.15296727,24.820632193358485
0.9031587361830842,0.4679002480249895,52824158.680846125,0.0,112896197.22113271,26.150347808412246
0.9531587361830842,0.4439644629182324,50433432.76817888,0.0,113597904.74371259,27.557321287796444
1.0031587361830843,0.4235698403331979,48381848.2706949,0.0,114224016.12125097,29.036860726094393
1.0531587361830843,0.4093895207638911,47015495.44458035,0.0,114842938.22873835,30.58402388748304
1.1031587361830844,0.39912067056451606,46109651.81094302,0.0,115528097.66962346,32.19359380460763
1.1531587361830844,0.38471987899549226,44754024.52751135,0.0,116328858.92032559,33.860026546581125
1.2031587361830844,0.38375516948344013,44952187.95231092,0.0,117137674.03529584,35.577444548401374
1.2531587361830845,0.37126842188535336,43745169.319718525,0.0,117826259.22661127,37.33978807222469
1.3031587361830845,0.36075314772589,42748021.87362088,0.0,118496601.18863879,39.14079806389198
1.3531587361830846,0.3524645266993955,42048137.64117159,0.0,119297502.1768161,40.97206502231137
1.4031587361830846,0.3456808347539491,41529702.33581013,0.0,120138862.67478614,42.82513796065275
1.4531587361830847,0.3342638439818715,40403478.80695031,0.0,120873015.53661771,44.69371110210331
1.5031587361830847,0.3316292239439376,40308124.513848804,0.0,121545755.3302448,46.57180455050687
1.5531587361830848,0.3229381337996958,39480214.61136766,0.0,122253182.51159364,48.453884439001655
1.6031587361830848,0.3214442281151459,39523815.28223459,0.0,122956991.68092263,50.33490059607105
1.6531587361830848,0.31688233915672026,39160438.858899325,0.0,123580376.75154807,52.210299290905716
1.7031587361830849,0.31740164216929806,39395397.08692937,0.0,124118441.28366658,54.07604389894578
1.753158736183085,0.316436433816583,39432241.35186016,0.0,124613467.78644454,55.928612069199204
1.803158736183085,0.31656854947438207,39643947.35455918,0.0,125230214.499774,57.76498787298001
1.853158736183085,0.31622614720391745,39864736.96638208,0.0,126064012.47609492,59.58262510904567
1.903158736183085,0.3182216286586698,40258862.88889208,0.0,126512025.78085743,61.37946240701227
1.953158736183085,0.32063872121791687,40337115.990456514,0.0,125802385.43005557,63.15385778769649
2.003158736183085,0.32907887890321225,40714607.93425453,0.0,123722944.69323689,64.90451371512746
2.053158736183085,0.3405906523374808,41011335.01194792,0.0,120412391.62169093,66.63043773198147
2.103158736183085,0.35442384760583495,41419376.48225932,0.0,116863966.01710337,68.33091111889071
2.1531587361830846,0.3634643948976078,41493772.383269034,0.0,114161862.80077948,70.00536049087482
2.2031587361830844,0.3709034065043272,41542665.11727327,0.0,112003999.93303542,71.65330739079862
2.2531587361830843,0.37900737770187404,41580764.50172554,0.0,109709644.054562,73.27442101304469
2.303158736183084,0.38718014765355846,41602423.955370784,0.0,107449785.86194417,74.8685328276022
2.353158736183084,0.3941217370780849,41625434.662815996,0.0,105615678.47390515,76.43561286665184
2.4031587361830837,0.40037340709954844,41638438.01218119,0.0,103999010.10865153,77.97574792047476
2.4531587361830836,0.4191081767369497,42859588.1062306,0.0,102263784.11397856,79.48912121511262
2.5031587361830834,0.4264354739991322,42925694.06783178,0.0,100661639.7676126,80.97599522890236
2.553158736183083,0.4181309758254171,41631772.70562516,0.0,99566344.30979766,82.43669269336336
2.603158736183083,0.41803803819676794,41284517.54676816,0.0,98757801.38298273,83.87158474396507
2.653158736183083,0.4185242285105647,40966663.7863329,0.0,97883613.41020615,85.28111769614436
2.7031587361830827,0.4187057992314612,40672132.32228434,0.0,97137733.45613664,86.6658138421822
2.7531587361830825,0.4172190139999806,40418775.33424324,0.0,96876637.87596487,88.02623804409764
2.8031587361830823,0.4134582236842359,40188655.79675313,0.0,97201249.10962176,89.36298559525898
2.853158736183082,0.40857133196594564,39980592.99885505,0.0,97854621.38637623,90.6766775757704
2.903158736183082,0.4144212439354949,40195799.5762119,0.0,96992613.58925031,91.9679600961841
2.953158736183082,0.427058913464855,40015096.223422244,0.0,93699241.39685544,93.23749550970626
3.0031587361830816,0.41655350752986314,40105550.09157775,0.0,96279467.98335996,94.48593685672273
3.0531587361830814,0.34522744999485067,39284612.854814686,0.0,113793421.85970625,95.71390792199595
3.1031587361830812,0.2755266140758505,38287411.54172386,0.0,138960846.5597578,96.92207461025166
3.153158736183081,0.23886859500270308,38157746.08779639,0.0,159743670.31113735,98.11135178660403
3.203158736183081,0.22668752886744034,39071390.08005335,0.0,172357916.0938362,99.28300006747588
3.2531587361830807,0.23074926807647989,40769422.48755179,0.0,176682781.39040127,100.43840123518277
3.3031587361830805,0.24376486702090436,42912690.15073715,0.0,176041324.88484126,101.57890066124557
3.3531587361830804,0.2589724934306829,45166954.85596859,0.0,174408309.76923063,102.70571731894682
3.40315873618308,0.27525941087365496,47319262.50036447,0.0,171907882.64123756,103.8199142058138
3.45315873618308,0.29263646093506945,49317304.29781077,0.0,168527544.8596727,104.92240776207927
3.50315873618308,0.2948174862250321,50757254.77231556,0.0,172165007.65349075,106.01398290570745
3.5531587361830796,0.2775864974046319,53065164.00903935,0.0,191166229.28415495,107.09531557657925
3.6031587361830795,0.24954590836367202,54562469.36232519,0.0,218647020.58271936,108.16705387852011
3.6531587361830793,0.23132270740975616,56160593.1387752,0.0,242780286.326558,109.22994389075912
3.703158736183079,0.22670602289690442,58116567.68588529,0.0,256352111.616876,110.28487897477098
3.753158736183079,0.23714427835728855,60582945.31056366,0.0,255468720.26694068,111.33284104747204
3.8031587361830788,0.2580256177453882,63438505.59383599,0.0,245861268.14909974,112.37478490109973
3.8531587361830786,0.28167712440594034,66454570.033745006,0.0,235924625.3095572,113.41152496468426
3.9031587361830784,0.30379163604739917,69375760.02063154,0.0,228366260.9124866,114.44368473674606
3.9531587361830782,0.322147639620313,72032331.16613978,0.0,223600369.23144287,115.47171519853235
4.003158736183078,0.33645612786382456,74378224.86975472,0.0,221063665.3937186,116.49949100031512
4.053158736183078,0.3480606964873634,76457109.39098555,0.0,219666024.23827934,117.53056096709369
4.103158736183078,0.36051277731883385,78351903.31439105,0.0,217334608.49044308,118.56475628916546
4.1531587361830775,0.37766158256122184,80171652.7111454,0.0,212284374.19405496,119.60188528893902
4.203158736183077,0.3963863173108951,81933303.62134142,0.0,206700635.3225841,120.64171576994534
4.253158736183077,0.4103309334892471,83530516.80898853,0.0,203568656.39811063,121.68397318593208
4.303158736183077,0.4210179096206634,84924860.4396317,0.0,201713177.75091538,122.72834077663688
4.353158736183077,0.43287971135442066,86157791.97660205,0.0,199034026.58217973,123.77447505445936
4.403158736183077,0.4423020788740278,87253107.34230103,0.0,197270398.4670884,124.82202310977985
4.4531587361830764,0.44065217328617867,87523651.32192011,0.0,198622987.98893803,125.87062878315496
4.503158736183076,0.44075929510966616,87876084.33222117,0.0,199374319.06083012,126.91993786083127
4.553158736183076,0.46300014526668,90259676.96766254,0.0,194945245.46136925,127.9696113574217
4.603158736183076,0.4824411058632912,91164475.24964887,0.0,188964982.75476974,129.0193328849166
4.653158736183076,0.49306827877020193,92107315.38634881,0.0,186804382.58182108,130.06878732890098
4.703158736183076,0.49545753699164075,92035615.08870429,0.0,185758835.45446417,131.1176443219364
4.753158736183075,0.5170717289964449,93715325.70620668,0.0,181242408.83966607,132.16557380459548
4.803158736183075,0.5374255088218733,94372228.21724266,0.0,175600574.7180151,133.2122653390525
4.853158736183075,0.543505196070369,94028578.72508797,0.0,173004010.6422715,134.25741795956577
4.903158736183075,0.5418125815034891,93704789.19011365,0.0,172946868.32500255,135.3007258958539
4.953158736183075,0.5387875624880111,93393704.83221947,0.0,173340498.80614612,136.34189550911913
5.0,0.563554843037243,97590769.12381086,0.0,173169959.10788664,137.31510908946558
