t_now,theta,Lcool,Lleak,Lmech,R2
0.0034123549563109144,0.07168532082277163,14539369.045744715,0.0,202822124.23503762,0.6367406067267616
0.003809519073673055,0.07506455308882673,15224768.903718809,0.0,202822347.92902535,0.6789843121426262
0.004124997745913152,0.07778991512245813,15777543.205208763,0.0,202822476.15737212,0.7113397900589904
0.004375591362726788,0.07992941194542076,16211486.913391098,0.0,202822547.03013453,0.7363338506951381
0.004691070034966884,0.0825055602250969,16733992.033552775,0.0,202822597.50613216,0.7669759327706349
0.00494166365178052,0.08444543771239925,17127443.827075325,0.0,202822607.0117282,0.790731444893632
0.005257142324020617,0.08681863454947256,17608779.514492642,0.0,202822580.72670436,0.8199655217549182
0.005654306441382758,0.0896993485327989,18193044.992630873,0.0,202822487.4562887,0.8557891324229688
0.005969785113622854,0.0919307559880541,18645613.43255839,0.0,202822365.94444287,0.8835271716469517
0.006366949230984995,0.09459675856136968,19186318.311980203,0.0,202822153.7795407,0.9175973630447132
0.006866949230984996,0.09776768146908382,19829416.527130447,0.0,202821793.7581032,0.9592653498968603
0.007264113348347137,0.10019482906166885,20321658.982452996,0.0,202821434.72638923,0.9914764219653799
0.007764113348347137,0.10309845974615701,20910521.547258377,0.0,202820891.78386405,1.030986396493982
0.008161277465709278,0.1053248542155459,21362027.905492067,0.0,202820389.02019238,1.0616112668335318
0.008661277465709279,0.10798774863510828,21902039.22938882,0.0,202819667.103127,1.0992716174398276
0.009290740171606362,0.11196830096434622,22709256.175743803,0.0,202818619.0212447,1.1453956641590355
0.009790740171606362,0.11457530700088546,23237897.653336216,0.0,202817677.4002153,1.1810999174360388
0.010420202877503445,0.11771361799657641,23874247.13187745,0.0,202816356.6646283,1.2249557568143727
0.011212649473734002,0.1214820923406154,24638327.758201484,0.0,202814483.05252883,1.278605486930329
0.011842112179631084,0.12439857118737868,25229626.30317853,0.0,202812830.26294354,1.3200968354193297
0.012634558775861641,0.12554009349794418,25460854.966887347,0.0,202810546.47537196,1.3710198107361555
0.01363218993334608,0.1298254868098354,26329563.80032107,0.0,202807356.60855135,1.4332601483372736
0.014424636529576637,0.13317953319543194,27009419.131945316,0.0,202804578.78096646,1.4813585484844938
0.015422267687061076,0.1372988841358164,27844321.156816754,0.0,202800782.62888926,1.5403494966857056
0.016214714283291635,0.1405286540583247,28498864.732971307,0.0,202797535.66232264,1.5860759466323007
0.017212345440776076,0.14707635244894035,29826078.947052505,0.0,202793164.5735303,1.642315363846801
0.018468288656530867,0.1517197674904872,30766830.87441295,0.0,202787226.63045225,1.7112132177895962
0.019465919814015308,0.15529834172429197,31491735.712807424,0.0,202782176.31400147,1.7645629356754606
0.0207218630297701,0.15962057105501024,32367127.466107372,0.0,202775414.54824546,1.8301082908234956
0.022303001859854288,0.1648179503678655,33419524.34347815,0.0,202766290.13337094,1.9103073054873199
0.02355894507560908,0.16879970125864724,34225587.76111587,0.0,202758580.1746943,1.9723386853474938
0.02514008390569327,0.1703186187276642,34531814.57070314,0.0,202748324.45605236,2.0484731302065455
0.027130619758460758,0.17586674015189746,35654272.96087357,0.0,202734598.53795376,2.1415275903846243
0.028711758588544946,0.18008186266555706,36506752.74159046,0.0,202723096.04765567,2.2134342484649463
0.030702294441312433,0.1894024957769309,38393386.91675459,0.0,202707925.04219407,2.301612274171534
0.03228343327139662,0.193045744923638,39129479.384585634,0.0,202695373.57616383,2.369950921003028
0.03427396912416411,0.1972587501049219,39980207.493445516,0.0,202679006.4936539,2.454042737374696
0.03677990529230047,0.2022978503490301,40997200.250078425,0.0,202657616.87207657,2.557166837907238
0.03877044114506796,0.20618033057903454,41780402.41232274,0.0,202640098.08785892,2.6370739949635125
0.04127637731320432,0.21085701044054944,42723321.78475868,0.0,202617506.98018363,2.735292055260415
0.044431164035605285,0.21648024292356963,43856394.67387209,0.0,202588439.85756242,2.855511784322295
0.046937100203741644,0.22083853870465675,44734168.00732061,0.0,202565042.63119957,2.948517425064432
0.05009188692614261,0.22257845970230156,45080029.90486431,0.0,202535456.3292369,3.0626767472689336
0.054063528099764016,0.2288390239288601,46339547.05899273,0.0,202498447.43874824,3.202204369545396
0.05721831482216498,0.23375819853293592,47328932.95261093,0.0,202469617.10710827,3.3100112306063862
0.06118995599578639,0.24530315519858722,49657833.567964256,0.0,202434548.90648815,3.4421880656688577
0.06434474271818735,0.2498248025036932,50566550.040672146,0.0,202408045.69404036,3.544602646178765
0.06831638389180876,0.25543002569723583,51693135.78221235,0.0,202376896.1425264,3.6704967844686207
0.07331638389180876,0.26221812800422933,53057762.05849406,0.0,202342082.38126957,3.8246091229892296
0.07728802506543017,0.2616218366472108,52930984.28214812,0.0,202318678.59533444,3.9438472493544605
0.08228802506543018,0.2681069772927584,54236859.00681811,0.0,202295589.44896227,4.090222567843989
0.08858265212440102,0.275839979487144,55796469.34497492,0.0,202278398.68866947,4.269151959081731
0.09358265212440102,0.2872425514507394,58102182.87650967,0.0,202275681.59055948,4.407430239722708
0.09987727918337186,0.2936367019853015,59399203.16996285,0.0,202288074.918292,4.57701258621148
0.10780174514567743,0.30103022943036584,60908132.668610826,0.0,202332279.99681693,4.784080111521492
0.11409637220464827,0.3064940517085273,62032227.98128811,0.0,202392926.17750418,4.943929230504838
0.12202083816695385,0.3128071115319514,63343880.507024944,0.0,202501407.96608692,5.139748035916959
0.12831546522592469,0.3174850636766158,64326001.370165356,0.0,202611110.66215888,5.291355130047333
0.13623993118823025,0.31706422713638766,64293046.85217027,0.0,202776098.1831423,5.477587104267952
0.14621624276307466,0.3243102159140605,65841995.86544656,0.0,203021652.21614277,5.705387669743806
0.15414070872538022,0.32971151567435897,67011469.98623818,0.0,203242734.3314947,5.881536524041235
0.16411702030022463,0.3438038275746966,69980703.08650868,0.0,203548353.66486523,6.097697544548326
0.17667645245777253,0.35063416635138217,71517755.36763202,0.0,203966875.53819755,6.361848194888281
0.18665276403261694,0.3558250045868591,72701488.88827659,0.0,204318100.05226797,6.565921729487342
0.19921219619016484,0.3542122486943445,72533097.08936982,0.0,204772978.22628322,6.8161011383187535
0.21502358449100675,0.36306556251645555,74554422.15243754,0.0,205346994.72924656,7.121446590282485
0.22758301664855465,0.36997474742758574,76138445.14071758,0.0,205793626.91671267,7.357096213368107
0.24339440494939657,0.38608916520936765,79666745.65460111,0.0,206342868.00407773,7.645753702244503
0.25595383710694447,0.3920175120904606,81057013.5732835,0.0,206768858.72021723,7.86924584023287
0.27176522540778636,0.39929747665199933,82771288.49935158,0.0,207292290.4331034,8.143793697387286
0.29167058393546125,0.3982631362319777,82811264.48550941,0.0,207931030.89831054,8.479605273310352
0.30748197223630314,0.40536697766842916,84487587.97105922,0.0,208422473.0317476,8.73921384500442
0.327387330763978,0.413850335760157,86503805.41387029,0.0,209021952.96031544,9.057661826016764
0.35244669244534166,0.4371923828404026,91702669.66757789,0.0,209753585.07344812,9.446577713747484
0.37235205097301655,0.4429961320956129,93172704.02891773,0.0,210323967.36323658,9.7468611845555
0.3974114126543802,0.4391738362638983,92682691.16896346,0.0,211038735.72575644,10.117894319286119
0.4289592798783899,0.4465682440801794,94650086.24655424,0.0,211949881.1240152,10.614095432176336
0.468675691614604,0.4440094511382453,94626591.8191928,0.0,213118418.03504804,11.307865298543465
0.518675691614604,0.4219957918560182,90558774.97136725,0.0,214596393.4215373,12.29387916023014
0.5583921033508181,0.3962854164534375,85505069.30997182,0.0,215766378.8771254,13.167067497817095
0.6083921033508182,0.3645220059850575,79200773.91208328,0.0,217272956.39684886,14.375320334153367
0.6583921033508182,0.3370510285199539,73757880.39970279,0.0,218832978.26915315,15.702915221924568
0.7083921033508183,0.3132692661663388,69013923.82253793,0.0,220302248.81968826,17.14488198619021
0.7583921033508183,0.28985246775063883,64221939.226412036,0.0,221567681.39597973,18.696043684073302
0.8083921033508183,0.26760950227943325,59637360.62642204,0.0,222852178.70981926,20.351119414249016
0.8583921033508184,0.2477922777897348,55598932.92977168,0.0,224377181.66887504,22.104783310382516
0.9083921033508184,0.23124353633415423,52249527.98600642,0.0,225950220.33612302,23.951693339331094
0.9583921033508185,0.21721637852993333,49380154.202924855,0.0,227331633.7244802,25.886457733259984
1.0083921033508185,0.20731724363702436,47387712.71772242,0.0,228575838.1038959,27.903551330684028
1.0583921033508186,0.19512028392317235,44842641.146266766,0.0,229820499.6663665,29.997308544778477
1.1083921033508186,0.1842061247844046,42590922.03330928,0.0,231213387.08556962,32.16173605812221
1.1583921033508187,0.1785499081983966,41572133.8657057,0.0,232832009.18542403,34.39042447428277
1.2083921033508187,0.17066072763678872,40008353.5944761,0.0,234432104.84619802,36.67669004524167
1.2583921033508187,0.15954066005365777,37617783.72088507,0.0,235788066.24112755,39.013570748583554
1.3083921033508188,0.1548504180523109,36722263.35943262,0.0,237146685.30650827,41.39385346971579
1.3583921033508188,0.1477757725553012,35284942.572003394,0.0,238773528.0409306,43.81022763270352
1.4083921033508189,0.14328739415875025,34452588.98914479,0.0,240443963.62581798,46.25534480681302
1.458392103350819,0.13927177254640588,33688245.57870001,0.0,241888538.95339748,48.72190223792023
1.508392103350819,0.135639744478234,32992310.22482338,0.0,243234830.26110855,51.2027567600255
1.558392103350819,0.13229795293192048,32367632.313517667,0.0,244657091.0297743,53.69105101976874
1.608392103350819,0.12931124735865018,31817511.558082502,0.0,246053705.36590138,56.180377415780214
1.658392103350819,0.12677593826992173,31349233.36348933,0.0,247280625.89245376,58.66286445606141
1.7083921033508191,0.12471110776159085,30970936.298119616,0.0,248341441.70482785,61.131083974529275
1.7583921033508192,0.12308366231252438,30689356.969969027,0.0,249337372.59170124,63.58006675453879
1.8083921033508192,0.12166311884599075,30491294.824646074,0.0,250620690.26229697,66.0055104857746
1.8583921033508193,0.12037168635160349,30368303.28542583,0.0,252287761.39864466,68.4037737664564
1.9083921033508193,0.11988989835331676,30332520.008639663,0.0,253003133.9191682,70.77186034532295
1.9583921033508194,0.12271038766544334,30836867.7762808,0.0,251297941.13562906,73.10738875743607
2.008392103350819,0.12329883615800193,30436565.29701022,0.0,246852008.05956617,75.40853122381243
2.058392103350819,0.12784086711414658,30689348.966395773,0.0,240058986.29421732,77.67390102559213
2.108392103350819,0.13329717523414913,31066788.681580443,0.0,233064118.7782763,79.90248255582068
2.1583921033508187,0.13785400804024603,31409939.47090446,0.0,227849301.71732426,82.09357298113301
2.2083921033508185,0.14187337646115222,31716162.942909196,0.0,223552605.386774,84.24672908035761
2.2583921033508183,0.14318240471305066,31346365.715148978,0.0,218926101.8347169,86.3617530100681
2.308392103350818,0.14729194322065076,31589739.61860455,0.0,214470248.1878559,88.43865611421411
2.358392103350818,0.149969509279757,31626691.353321016,0.0,210887476.42911714,90.4776384159655
2.4083921033508178,0.15271651078707607,31711525.474496868,0.0,207649620.27393645,92.47905692724056
2.4583921033508176,0.15645824493492375,31943055.42987062,0.0,204163452.32018173,94.44341078920655
2.5083921033508174,0.1582037291304676,31805522.255110182,0.0,201041545.79618523,96.37132890040614
2.5583921033508172,0.16001532310906447,31835338.51511176,0.0,198951812.21746612,98.26351997709844
2.608392103350817,0.16139416250300015,31850106.365093466,0.0,197343608.1648951,100.12076494904856
2.658392103350817,0.16290079408065566,31861005.027929764,0.0,195585326.68757096,101.94391569483865
2.7083921033508167,0.16413520052541583,31869556.4860079,0.0,194166494.353373,103.7338697155183
2.7583921033508165,0.16447182113751066,31869072.43712994,0.0,193766155.3007614,105.49155497576173
2.8083921033508163,0.1637117004443802,31848243.19010451,0.0,194538588.8953289,107.21791769002766
2.858392103350816,0.16253952451702042,31817906.54288884,0.0,195754888.7720353,108.91391755278828
2.908392103350816,0.16637670516141198,32182545.375679318,0.0,193431798.90752798,110.5805257380795
2.958392103350816,0.17149404702812815,32066433.853126034,0.0,186982781.086661,112.21871312090087
3.0083921033508156,0.16435975097911112,32006072.271231785,0.0,194731812.8712638,113.82942681008639
3.0583921033508155,0.13431997983538801,31242811.425561134,0.0,232599881.743951,115.41357961131402
3.1083921033508153,0.10706627575878098,30298496.04538854,0.0,282988231.64121896,116.97213160690288
3.158392103350815,0.09230246718715325,29806083.21405083,0.0,322917513.71732855,118.50626474998792
3.208392103350815,0.08644262387936223,29939914.899604436,0.0,346355924.380408,120.01743900442276
3.2583921033508148,0.08667855578731923,30644138.54727891,0.0,353537714.9392012,121.50720491459667
3.3083921033508146,0.09027283380228789,31753296.69326166,0.0,351748088.0550013,122.97705401575925
3.3583921033508144,0.09486334540817568,33052271.768289723,0.0,348419841.4685168,124.42835082996122
3.408392103350814,0.1002916364385875,34408571.21467986,0.0,343085150.8315908,125.86231567374325
3.458392103350814,0.1061781791325581,35759154.51763515,0.0,336784401.55760866,127.2800359990749
3.508392103350814,0.10687074063913489,37061033.337541446,0.0,346783723.1771752,128.68247901383842
3.5583921033508137,0.09870943800558254,38272054.1969283,0.0,387724365.27056116,130.07051406708436
3.6083921033508135,0.08897494149104139,39416452.62855816,0.0,443006221.3924229,131.44499088853314
3.6583921033508133,0.08293565489712353,40603697.656491086,0.0,489580720.22048205,132.80684483736835
3.708392103350813,0.08331700781590651,42814887.79904347,0.0,513879325.73917335,134.15712890623797
3.758392103350813,0.08550483166567939,43558048.635163195,0.0,509422073.4270724,135.4969509790742
3.808392103350813,0.09320716996892699,45621149.16893641,0.0,489459654.06036246,136.8302551763868
3.8583921033508126,0.10185310750229973,47873413.92557047,0.0,470024087.62530434,138.16064800171944
3.9083921033508124,0.1101107932525092,50152388.07738561,0.0,455472044.07450527,139.4885744144586
3.9583921033508123,0.11718480978912418,52322173.89405277,0.0,446492800.4594393,140.81433913997753
4.008392103350812,0.12300553453164387,54341237.82688565,0.0,441778803.1554471,142.13814703253755
4.058392103350812,0.12807895006974113,56228668.58821465,0.0,439015689.60080636,143.4601341273844
4.108392103350812,0.13379542885076098,58050525.38890869,0.0,433875251.8492975,144.7803882880967
4.1583921033508116,0.14144081276793713,59875191.40834345,0.0,423323298.5346391,146.09896483686381
4.208392103350811,0.149495912263488,61662359.280686446,0.0,412468530.72481304,147.41588551732107
4.258392103350811,0.15569879221246682,63326353.12322037,0.0,406723470.51225114,148.731124581546
4.308392103350811,0.16098708298396006,64871969.08459168,0.0,402963814.7493808,150.04461065111718
4.358392103350811,0.16689384621365316,66340896.1129176,0.0,397503548.6208983,151.35624170252228
4.408392103350811,0.171597574365502,67701279.67342672,0.0,394535178.7387351,152.6658983873212
4.4583921033508105,0.17166036130098386,68263174.85174325,0.0,397664168.56162125,153.97344826337246
4.50839210335081,0.17607729309807144,70141289.77514508,0.0,398355111.7864916,155.27875139017934
4.55839210335081,0.1836410993756877,71354287.30771388,0.0,388552930.41858417,156.58167136960097
4.60839210335081,0.1925237487290343,72589622.35910971,0.0,377042431.5873637,157.8820770437192
4.65839210335081,0.19738049014834563,73718228.56216028,0.0,373482852.8734311,159.17982720928066
4.70839210335081,0.20146824589339693,74737269.10894522,0.0,370963020.8846461,160.47476154300642
4.758392103350809,0.20957356168761584,75706130.1539521,0.0,361238934.64576143,161.7667131181838
4.808392103350809,0.21876451578916026,76631205.05022983,0.0,350290835.6677235,163.05552058886525
4.858392103350809,0.22394993844193226,77449918.83001262,0.0,345835856.7492731,164.34102243326473
4.908392103350809,0.22403660291111185,77514927.88842018,0.0,345992248.0576747,165.62304919463529
4.958392103350809,0.22722878610998035,78783919.95126387,0.0,346716282.298546,166.90143084218192
5.0,0.22769006581417572,78858158.77262567,0.0,346339918.21577334,167.9623505029762
