t_now,theta,Lcool,Lleak,Lmech,R2
0.0034123549563109144,0.09100358790797795,18457541.01250607,0.0,202822124.23503762,0.6353006425259753
0.003809519073673055,0.09498839203228358,19265768.69799048,0.0,202822347.92902535,0.6773767962669649
0.004124997745913152,0.09817361462301274,19911815.61115904,0.0,202822476.15737212,0.7096004669251076
0.004375591362726788,0.1006732028041167,20418795.41041223,0.0,202822547.03013453,0.7344906397272444
0.004691070034966884,0.1036764878335591,21027934.562715363,0.0,202822597.50613216,0.7650028906985514
0.00494166365178052,0.1059430188722646,21487639.282365426,0.0,202822607.0117282,0.7886568963229103
0.005257142324020617,0.10872509489356341,22051904.33606836,0.0,202822580.72670436,0.817766228314593
0.005654306441382758,0.11209955465196599,22736310.51725392,0.0,202822487.4562887,0.8534364839911606
0.005969785113622854,0.11469582549045249,23262878.689924512,0.0,202822365.94444287,0.8810549734839245
0.006366949230984995,0.11620625664901973,23569203.256212253,0.0,202822153.7795407,0.9149769630832966
0.006866949230984996,0.11993174452670205,24324771.553444285,0.0,202821793.7581032,0.9564612098387489
0.007264113348347137,0.12275614251777246,24897576.94693172,0.0,202821434.72638923,0.9885287129148159
0.007764113348347137,0.12789203521171397,25939176.63369317,0.0,202820891.78386405,1.0278618998346398
0.008161277465709278,0.13046523095837936,26461008.89658775,0.0,202820389.02019238,1.058349645641697
0.008661277465709279,0.13354470181859918,27085491.966234647,0.0,202819667.103127,1.0958417381306558
0.009290740171606362,0.13720885321774537,27828510.12711178,0.0,202818619.0212447,1.1417604471752352
0.009790740171606362,0.14001013168878843,28396529.721618354,0.0,202817677.4002153,1.1773064353719096
0.010420202877503445,0.14338373728245887,29080567.200586542,0.0,202816356.6646283,1.2209671606914927
0.011212649473734002,0.1474404476444879,29903058.170050256,0.0,202814483.05252883,1.2743728245367456
0.011842112179631084,0.15057573703088767,30538691.396163043,0.0,202812830.26294354,1.3156686196006195
0.012634558775861641,0.15439208590679587,31312343.314229842,0.0,202810546.47537196,1.3663404756808373
0.01363218993334608,0.1590436743746125,32255227.18522636,0.0,202807356.60855135,1.4282549675494074
0.014424636529576637,0.16081922615226044,32614875.419690162,0.0,202804578.78096646,1.4760855334777159
0.015422267687061076,0.16552152011390445,33567893.821023256,0.0,202800782.62888926,1.5347262520906428
0.016214714283291635,0.16920729958933486,34314823.37279345,0.0,202797535.66232264,1.5801656438747613
0.017212345440776076,0.17373842924036345,35232965.87368767,0.0,202793164.5735303,1.6360363011143868
0.018468288656530867,0.17923197566825452,36345955.26926203,0.0,202787226.63045225,1.7044621303304475
0.019465919814015308,0.1833924449766052,37188719.11190177,0.0,202782176.31400147,1.7574354181533116
0.0207218630297701,0.19057322558611733,38643564.82002124,0.0,202775414.54824546,1.8225127128915148
0.022303001859854288,0.19627021829794805,39796984.027941786,0.0,202766290.13337094,1.9021374681403267
0.02355894507560908,0.20063578805433252,40680627.51812735,0.0,202758580.1746943,1.9637237218406087
0.02514008390569327,0.20584371283205594,41734467.87651215,0.0,202748324.45605236,2.0393066997620823
0.027130619758460758,0.21197947282043728,42975573.32053843,0.0,202734598.53795376,2.1316749827134425
0.028711758588544946,0.21664755919829243,43919463.9518456,0.0,202723096.04765567,2.203040405716952
0.030702294441312433,0.22216714108720645,45035040.182344,0.0,202707925.04219407,2.290540735651092
0.03228343327139662,0.22634591662601303,45879270.12794894,0.0,202695373.57616383,2.3583431396527406
0.03427396912416411,0.23121657350321242,46862745.40249799,0.0,202679006.4936539,2.441764781890159
0.03677990529230047,0.23527846691949195,47680973.40721994,0.0,202657616.87207657,2.5440586436640054
0.03877044114506796,0.23941432103520124,48514941.498211324,0.0,202640098.08785892,2.6233200409095834
0.04127637731320432,0.2444093152900163,49521606.14679678,0.0,202617506.98018363,2.7207421698813845
0.044431164035605285,0.25575274408321463,51812549.41310888,0.0,202588439.85756242,2.839978264038319
0.046937100203741644,0.2601951138927577,52706434.33811629,0.0,202565042.63119957,2.9322117469782514
0.05009188692614261,0.2656304495195165,53799584.30837559,0.0,202535456.3292369,3.04540199238489
0.054063528099764016,0.2723182575579091,55144024.36470177,0.0,202498447.43874824,3.1836990446772786
0.05721831482216498,0.2719338853402223,55058349.64328309,0.0,202469617.10710827,3.290513658748336
0.06118995599578639,0.27884145343705297,56447143.84295934,0.0,202434548.90648815,3.421419010206425
0.06434474271818735,0.2842883069020304,57542240.613707535,0.0,202408045.69404036,3.5228092465866094
0.06831638389180876,0.29101145646480486,58893995.30126315,0.0,202376896.1425264,3.647409655455126
0.07331638389180876,0.3050810855962294,61730742.1546794,0.0,202342082.38126957,3.799906040125601
0.07728802506543017,0.31056009901900655,62832108.857961625,0.0,202318678.59533444,3.917881543706456
0.08228802506543018,0.31719340007340907,64166825.8371708,0.0,202295589.44896227,4.062696867230885
0.08858265212440102,0.31841305594067365,64408083.0772452,0.0,202278398.68866947,4.239684673326426
0.09358265212440102,0.32467142504876695,65673133.79471758,0.0,202275681.59055948,4.3764204332189225
0.09987727918337186,0.3320164353211434,67162965.5423477,0.0,202288074.918292,4.544051302222321
0.10780174514567743,0.34945877767892963,70706791.25267859,0.0,202332279.99681693,4.748665029885
0.11409637220464827,0.3550618820761989,71862013.28749381,0.0,202392926.17750418,4.906585264283941
0.12202083816695385,0.36151674786508103,73207650.44599976,0.0,202501407.96608692,5.100005817083601
0.12831546522592469,0.35895421006643385,72728111.17841806,0.0,202611110.66215888,5.249721172104691
0.13623993118823025,0.3654229371677827,74099037.38550654,0.0,202776098.1831423,5.4335785421745495
0.14621624276307466,0.3729293282314164,75712728.37739837,0.0,203021652.21614277,5.658411969185697
0.15414070872538022,0.37853012902403166,76933498.44969767,0.0,203242734.3314947,5.832225528427233
0.16411702030022463,0.3951857368147979,80439406.12048884,0.0,203548353.66486523,6.045463371363088
0.17667645245777253,0.40223650720567744,82042923.60213971,0.0,203966875.53819755,6.305948619348469
0.18665276403261694,0.3972202213961728,81159280.93800727,0.0,204318100.05226797,6.50711426871167
0.19921219619016484,0.4050365339170324,82940537.3406417,0.0,204772978.22628322,6.753629500148155
0.21502358449100675,0.4149911893852966,85217193.57938626,0.0,205346994.72924656,7.054388748062123
0.22758301664855465,0.42281046454542615,87011698.9971434,0.0,205793626.91671267,7.286432611163879
0.24339440494939657,0.43979733844142777,90749044.15456423,0.0,206342868.00407773,7.5705898490233
0.26329976347707146,0.45009111016568343,93175080.28791207,0.0,207013820.49872816,7.9170200746301065
0.27911115177791335,0.4578431545327965,95016476.97668076,0.0,207530627.10665575,8.184072168357522
0.29901651030558823,0.4506955371215037,93817278.57868668,0.0,208161099.57040542,8.510733815864832
0.3148278986064301,0.4584926234133226,95662672.95463476,0.0,208646045.91118282,8.763269706063436
0.334733257134105,0.4846448887746984,101406431.27108476,0.0,209238627.33281925,9.073048185632315
0.35979261881546865,0.49289960070319955,103491567.1402943,0.0,209964802.1476324,9.4513943222941
0.37969797734314353,0.49890587854352264,105036358.4605714,0.0,210533415.1748393,9.743485664432738
0.40475733902450717,0.49721544684496266,105036358.4605714,0.0,211249186.09643057,10.103925961243691
