t_now,theta,Lcool,Lleak,Lmech,R2
0.0034166627538203356,0.08018431371963311,8131576.531751398,0.0,101411063.51778108,0.9507417448505467
0.003813826871182476,0.08357807762597232,8475751.055202916,0.0,101411174.98698048,1.013519051643524
0.004129305543422572,0.08618035818717992,8739656.884285703,0.0,101411238.80343542,1.0615980181281586
0.0043798991602362084,0.08818248137201722,8942697.78084333,0.0,101411274.00482859,1.0987302183325691
0.0046953778324763055,0.09059870843474055,9187732.705457969,0.0,101411298.94888087,1.1442441115139153
0.004945971449289942,0.09247057805422053,9377561.853073936,0.0,101411303.46968699,1.1795056721128359
0.005261450121530039,0.09474939598740184,9608658.477309031,0.0,101411290.03700063,1.2228516494439643
0.00565861423889218,0.09752768427784908,9890403.693378028,0.0,101411243.03947386,1.2759252807490493
0.005974092911132276,0.09969780145459657,10110471.888125032,0.0,101411181.99812508,1.3170043079739615
0.006371257028494417,0.102350367056961,10379460.807138966,0.0,101411075.55933326,1.367456654870086
0.006871257028494417,0.105570928892414,10706042.396019146,0.0,101410895.10474554,1.429171007046686
0.007268421145856558,0.10693066084033995,10843914.79691264,0.0,101410715.24007395,1.4768961747994092
0.007768421145856559,0.11003313764807823,11158509.270368563,0.0,101410443.33441718,1.535461988927284
0.0081655852632187,0.11242067711929736,11400602.407739235,0.0,101410191.61129288,1.580883671937357
0.0086655852632187,0.11535040651322563,11697665.14121864,0.0,101409830.22784086,1.6367785349119197
0.009295047969115783,0.11891985498268838,12059579.922918838,0.0,101409305.65946618,1.7053007989375588
0.009795047969115784,0.12167909412884016,12339335.110829167,0.0,101408834.43596019,1.758396986648434
0.010424510675012866,0.1250094565359356,12676980.66450612,0.0,101408173.55574982,1.8236786302673498
0.011216957271243423,0.13034023362601968,13217442.846794227,0.0,101407236.11650519,1.9036301678595895
0.011846419977140506,0.13322045115293596,13509407.587180106,0.0,101406409.2282004,1.9655279385060087
0.012638866573371063,0.13666910234667487,13858966.776533537,0.0,101405266.72501938,2.041562898279136
0.013636497730855502,0.1407761520190374,14275218.610078081,0.0,101403671.04328594,2.1345810430364427
0.014428944327086059,0.1439122063742527,14593026.06925235,0.0,101402281.55006026,2.2065161822807533
0.015426575484570498,0.14766682358790584,14973472.433271846,0.0,101400382.7634185,2.2947869584862692
0.016219022080801056,0.15054613915824086,15265191.642339421,0.0,101398758.73066393,2.3632378902036852
0.017216653238285497,0.1540315359525377,15618269.804559473,0.0,101396572.51338445,2.447450339800643
0.01847259645404029,0.15824619645332974,16045151.97587213,0.0,101393602.72462659,2.55064686365628
0.01947022761152473,0.16151106829699596,16375781.152524546,0.0,101391076.94100447,2.6305755848372545
0.02072617082727952,0.16549124878966542,16778776.30721721,0.0,101387695.30068958,2.7287978687608754
0.02230730965736371,0.17034557137612938,17270167.58030808,0.0,101383132.18706992,2.849012881917043
0.0235632528731185,0.17414245514428833,17654436.114912026,0.0,101379276.52555592,2.9420196830065137
0.025144391703202693,0.1788038433869477,18126087.256515056,0.0,101374147.85480066,3.0561960290198122
0.02713492755597018,0.1831039371024675,18560748.784500413,0.0,101367283.94929902,3.195779318140418
0.028716066386054367,0.18727321073701972,18982299.545109812,0.0,101361532.01199661,3.3036624809860315
0.030706602238821854,0.19224470221332876,19484759.111737564,0.0,101353945.71297914,3.4359734243561517
0.03228774106890604,0.19593064993000817,19857114.735823024,0.0,101347669.40709141,3.538518949043519
0.034278276921673526,0.20043868283475305,20312352.936591692,0.0,101339485.21971546,3.6646042228790656
0.036784213089809885,0.20595546569532,20869218.07399445,0.0,101328789.71450704,3.8190019701167435
0.038774748942577375,0.21022186316126623,21299685.453843683,0.0,101320029.86532463,3.9385025483133775
0.041280685110713734,0.21909536251554979,22196273.769966543,0.0,101308733.85506375,4.085249751679912
0.0444354718331147,0.22513414964487127,22804783.560188867,0.0,101294199.90774988,4.264698500959665
0.04694140800125106,0.22971343051068963,23265950.78705887,0.0,101282501.13776521,4.403411884009408
0.050096194723652024,0.23114460452381946,23407484.311603777,0.0,101267707.9779798,4.573544018135583
0.05406783589727343,0.23775633475980346,24072639.59772512,0.0,101249203.82056203,4.781300192063749
0.057222622619674396,0.24285093937808613,24584963.635729607,0.0,101234789.1208036,4.941700850410035
0.0611942637932958,0.2537957531312035,25688509.69257268,0.0,101217255.90614048,5.138227423139025
0.06434905051569677,0.2582912587029135,26140109.899433795,0.0,101204005.2408438,5.290409783409511
0.06832069168931817,0.26371386528225105,26684792.51100324,0.0,101188431.94855417,5.477376259603279
0.07332069168931818,0.2702571044536174,27342188.922219098,0.0,101171027.40924123,5.7061001221610566
0.07729233286293959,0.26987385206199643,27300257.452529326,0.0,101159327.75235227,5.8829551746336675
0.08229233286293959,0.27628374848971926,27945489.596806556,0.0,101147786.46796313,6.099924359393807
0.08858695992191043,0.284103069924711,28733956.067349542,0.0,101139195.97899526,6.364946850544807
0.09358695992191043,0.29635723884238935,29972931.571383767,0.0,101137841.91154571,6.569607660599966
0.09988158698088127,0.3034782582166129,30695018.5959465,0.0,101144044.96824743,6.820413677421992
0.10780605294318685,0.3056481170386472,30921245.317328,0.0,101166156.74559583,7.126368694011705
0.11410068000215769,0.31242729487727716,31616544.941434912,0.0,101196487.82240371,7.3623242760008045
0.12202514596446326,0.32028665278002844,32429259.9902307,0.0,101250738.077128,7.65108915821609
0.1283197730234341,0.32515660677811253,32940183.91582439,0.0,101305596.22398457,7.875415285945015
0.13624423898573967,0.33569195042237887,34035168.28078099,0.0,101388097.74245943,8.15311341970126
0.14622055056058408,0.3421402841172615,34730962.438142456,0.0,101510883.25582595,8.495436333032018
0.15414501652288964,0.34731259588943353,35294402.67009302,0.0,101621430.05412032,8.761722698522595
0.16412132809773405,0.353583954430575,35985740.24600199,0.0,101774245.6779601,9.089904044799141
0.17668076025528195,0.3622250143452751,36940979.134003,0.0,101983512.10165356,9.492536726738912
0.18665707183012636,0.3671048064643463,37503106.58941659,0.0,102159127.11853568,9.80453767355512
0.19921650398767426,0.3728666947670886,38176541.07468986,0.0,102386567.66739881,10.187887752320727
0.21502789228851618,0.37963389447802015,38978369.04227385,0.0,102673574.74987155,10.656688908535159
0.22758732444606408,0.39464562512894336,40607807.18814903,0.0,102896889.26586011,11.01892779521779
0.243398712746906,0.40084638827919755,41355926.289658025,0.0,103171507.83669478,11.462871504899224
0.2559581449044539,0.3936214431500021,40694356.73422382,0.0,103384501.63833155,11.806640438474227
0.2717695332052958,0.4006631862307277,41527222.962521575,0.0,103646215.54875651,12.228892725559763
0.2916748917329707,0.40907804998209657,42530038.1031857,0.0,103965583.35272948,12.745348295923892
0.30748628003381256,0.4155850094535452,43308655.13762367,0.0,104211302.50720648,13.144668942762816
0.32739163856148745,0.4235120331101726,44261683.17282782,0.0,104511040.3304965,13.63461535858647
0.3524510002428511,0.4331866508103034,45431253.40568485,0.0,104876854.63229945,14.233196167092313
0.372356358770526,0.44071770817486106,46346775.51914378,0.0,105162045.13560194,14.695551642453955
0.3974157204518896,0.44996700651231397,47480261.801290415,0.0,105519429.45619293,15.262310380482909
0.4289635876758993,0.46145723100103886,48902931.62894468,0.0,105975003.41008762,15.954029705423578
0.45402294935726295,0.4694242954944712,49919877.12929341,0.0,106342764.12282832,16.487842750694252
0.48557081658127266,0.4785561746321696,51114245.80950904,0.0,106809291.19511779,17.141637276454638
0.5106301782626363,0.48154048880901607,51611367.12130491,0.0,107179704.13859531,17.64774986993247
0.542178045486646,0.4891513398556223,52654157.64388801,0.0,107643899.45130149,18.269404019059387
0.5818944572228602,0.4979541090046406,53895284.36325156,0.0,108233436.35216251,19.029741689196328
0.6134423244468699,0.5043676446483839,54832128.00078654,0.0,108714602.4979702,19.61758375108492
0.653158736183084,0.5407988028862059,59128421.03968377,0.0,109335340.10082765,20.34934838653966
0.703158736183084,0.5212043041853415,57373732.46162155,0.0,110079160.89890791,21.3342160872539
0.753158736183084,0.520553153341216,57635587.931779504,0.0,110719890.10505542,22.40850953528158
0.8031587361830841,0.5123714595765602,57054484.43068465,0.0,111353751.97876216,23.57074299575108
0.8531587361830841,0.4933589477930169,55308011.33147024,0.0,112105013.15296724,24.818302561975468
0.9031587361830842,0.468197504412561,52857717.79660262,0.0,112896197.22113267,26.147503297898705
0.9531587361830842,0.4441678882651927,50456541.46136533,0.0,113597904.74371256,27.553998212222005
1.0031587361830843,0.42371128108246864,48398004.2011198,0.0,114224016.12125097,29.033095275358043
1.0531587361830843,0.4094868123480111,47026668.69596562,0.0,114842938.22873837,30.579849818911057
1.1031587361830844,0.39920189850647075,46119035.920554675,0.0,115528097.66962348,32.18904034591856
1.1531587361830844,0.3847918557371068,44762397.49973218,0.0,116328858.9203256,33.85512349512717
1.2031587361830844,0.38382957402148943,44960903.526835695,0.0,117137674.03529586,35.57222245511632
1.2531587361830845,0.3713330564327706,43752784.966657504,0.0,117826259.22661129,37.33427827210741
1.3031587361830845,0.3608089892389301,42754638.903121375,0.0,118496601.1886388,39.13503226212935
1.3531587361830846,0.35205390005458026,41999150.90811789,0.0,119297502.1768161,40.96607558778803
1.4031587361830846,0.3440630035031679,41335337.92934155,0.0,120138862.67478614,42.81895759453407
1.4531587361830847,0.3396213140185975,41051052.365936466,0.0,120873015.53661773,44.68731539214034
1.5031587361830847,0.3267966699860583,39720748.0928642,0.0,121545755.33024482,46.56517446470597
1.5531587361830848,0.32516755627423505,39752768.604042955,0.0,122253182.51159365,48.44699850383262
1.6031587361830848,0.31880090905328123,39198800.722334884,0.0,122956991.68092266,50.327739268264615
1.6531587361830848,0.31834541828483404,39341246.72876896,0.0,123580376.7515481,52.20286489878293
1.7031587361830849,0.31632002928780284,39261148.982005864,0.0,124118441.28366663,54.06835086958564
1.753158736183085,0.31730946348106476,39541032.605831675,0.0,124613467.78644457,55.920686156943276
1.803158736183085,0.3163826005507749,39620660.93096985,0.0,125230214.49977398,57.75685043804458
1.853158736183085,0.3159529300310523,39830294.11329332,0.0,126064012.47609492,59.57429905894961
1.903158736183085,0.3179875318953033,40229246.833129846,0.0,126512025.78085744,61.37093726705981
1.953158736183085,0.3203514186967009,40300972.6479475,0.0,125802385.43005562,63.145130172473564
2.003158736183085,0.32881331284056403,40681751.3189731,0.0,123722944.69323689,64.89558629525871
2.053158736183085,0.3403927280037925,40987502.46956837,0.0,120412391.6216909,66.62131781364236
2.103158736183085,0.35424896909011605,41398939.48534123,0.0,116863966.01710337,68.32160941307373
2.1531587361830846,0.36330018008402415,41475025.31425084,0.0,114161862.80077948,69.99588986205788
2.2031587361830844,0.37075037075380285,41525524.50108179,0.0,112003999.9330354,71.64368160085192
2.2531587361830843,0.3788655473144752,41565204.340407886,0.0,109709644.05456199,73.26465426526069
2.303158736183084,0.3870491328513075,41588346.44292417,0.0,107449785.86194417,74.85863962976791
2.353158736183084,0.3940010622309756,41612689.50696381,0.0,105615678.47390515,76.42560780621682
2.4031587361830837,0.4002634630059487,41627003.935279526,0.0,103999010.10865152,77.96564548687839
2.4531587361830836,0.4191337433131834,42862202.641063094,0.0,102263784.11397856,79.47893575562641
2.5031587361830834,0.42645915600682927,42928077.93755956,0.0,100661639.76761262,80.96574087229823
2.553158736183083,0.41815506679429854,41634171.35532757,0.0,99566344.30979766,82.42638263726533
2.603158736183083,0.4180613938522975,41286824.09995812,0.0,98757801.38298275,83.86123075035695
2.653158736183083,0.4185472148360872,40968913.77093406,0.0,97883613.41020615,85.27073020063564
2.7031587361830827,0.4187285091992931,40674338.317086406,0.0,97137733.45613667,86.655402056495
2.7531587361830825,0.41723815553680454,40420629.70197452,0.0,96876637.87596487,88.01581011967569
2.8031587361830823,0.41347452217353187,40190240.03027129,0.0,97201249.10962175,89.35254873826352
2.853158736183082,0.408584097935756,39981842.20799747,0.0,97854621.38637623,90.66623818170225
2.903158736183082,0.41443280473171773,40196920.888052724,0.0,96992613.58925031,91.95752384874301
2.953158736183082,0.4270672223795206,40015874.76242323,0.0,93699241.39685541,93.22706742133461
3.0031587361830816,0.4165599646095111,40106171.77577098,0.0,96279467.98335995,94.47552134663924
3.0531587361830814,0.34523163209101176,39285088.7498474,0.0,113793421.85970622,95.70350889945777
3.1031587361830812,0.27552949830060014,38287812.33603674,0.0,138960846.5597578,96.91169554538492
3.153158736183081,0.2388715900047117,38158224.52040984,0.0,159743670.31113735,98.10099581521833
3.203158736183081,0.22669162390825545,39072095.89275458,0.0,172357916.09383625,99.27267016834652
3.2531587361830807,0.230754676777362,40770378.11186737,0.0,176682781.39040133,100.42810034798823
3.3031587361830805,0.24377154238145254,42913865.290052146,0.0,176041324.8848413,101.56863168773022
3.3531587361830804,0.25898042207948896,45168337.67820561,0.0,174408309.76923063,102.69548310846591
3.40315873618308,0.27526849120675806,47320823.481201895,0.0,171907882.64123756,103.80971752709898
3.45315873618308,0.2926464399873865,49318986.0429978,0.0,168527544.85967273,104.91225127629816
3.50315873618308,0.2948274279332119,50758966.386580445,0.0,172165007.6534908,106.00386914366976
3.5531587361830796,0.27759620602296387,53067019.96899744,0.0,191166229.284155,107.08524692382734
3.6031587361830795,0.24955429573020876,54564303.235029,0.0,218647020.5827194,108.15703258712641
3.6531587361830793,0.23132993229057439,56162347.19740892,0.0,242780286.326558,109.21997212537752
3.703158736183079,0.22671249699681567,58118227.33506834,0.0,256352111.61687592,110.27495887237468
3.753158736183079,0.2371505627880091,60584550.78603744,0.0,255468720.26694062,111.32297475664983
3.8031587361830788,0.2580320907258495,63440097.04902091,0.0,245861268.1490997,112.36497460572971
3.8531587361830786,0.28168410164694113,66456216.13671381,0.0,235924625.3095572,113.40177282716638
3.9031587361830784,0.3037993514632294,69377521.96129607,0.0,228366260.9124866,114.43399285108634
3.9531587361830782,0.3221559332496506,72034185.62472193,0.0,223600369.23144287,115.46208556887181
4.003158736183078,0.33646476265157815,74380133.70758542,0.0,221063665.3937186,116.48992561642714
4.053158736183078,0.34806931071666286,76459001.64448766,0.0,219666024.23827937,117.5210617754535
4.103158736183078,0.3605213365059786,78353763.52197815,0.0,217334608.4904431,118.55532506274125
4.1531587361830775,0.37767023229437047,80173488.91433382,0.0,212284374.19405502,119.59252359530598
4.203158736183077,0.3963949716005306,81935092.46850736,0.0,206700635.32258412,120.63242497308568
4.253158736183077,0.41033971509871003,83532304.46942793,0.0,203568656.39811066,121.674754444357
4.303158736183077,0.42102619586259593,84926531.88382351,0.0,201713177.75091535,122.71919503824176
4.353158736183077,0.4328882850250942,86159498.4287988,0.0,199034026.58217973,123.76540306013588
4.403158736183077,0.4423107588152061,87254819.63775593,0.0,197270398.46708837,124.81302540205542
4.4531587361830764,0.44065888397522435,87524984.21902981,0.0,198622987.988938,125.86170571647604
4.503158736183076,0.4407657881013487,87877378.86801653,0.0,199374319.0608301,126.91108961273824
4.553158736183076,0.46300426778152004,90260480.63232996,0.0,194945245.46136925,127.96083782855031
4.603158736183076,0.4824448242288731,91165177.89053692,0.0,188964982.75476974,129.01063383421211
4.653158736183076,0.49307147758802355,92107912.93953697,0.0,186804382.58182108,130.0601624950354
4.703158736183076,0.4954596191263003,92036001.86361392,0.0,185758835.4544642,131.10909331618683
4.753158736183075,0.5170716688546709,93715314.80596669,0.0,181242408.83966604,132.1570961196191
4.803158736183075,0.5374239950660137,94371962.40084368,0.0,175600574.71801504,133.20386036080617
4.853158736183075,0.5435029384629695,94028188.1499534,0.0,173004010.6422715,134.24908497811924
4.903158736183075,0.5418095739380724,93704269.04109354,0.0,172946868.32500255,135.29246411369428
4.953158736183075,0.5387832982967674,93392965.67518227,0.0,173340498.80614612,136.33370405198445
5.0,0.5635449775507898,97589060.71792519,0.0,173169959.10788667,137.3069826596909
