t_now,theta,Lcool,Lleak,Lmech,R2
0.0034123549563109144,0.29072930230326577,14741583.667629695,0.0,202822124.23503762,0.636740588821255
0.003809519073673055,0.2902091664990672,14715226.134966563,0.0,202822347.92902535,0.6788206941585129
0.004124997745913152,0.2900442219815832,14706871.8243608,0.0,202822476.15737212,0.7108180563862606
0.004375591362726788,0.29081352798921517,14745885.114397986,0.0,202822547.03013453,0.7353776656387774
0.004691070034966884,0.2928621027458064,14849763.097503051,0.0,202822597.50613216,0.7653041732913692
0.00494166365178052,0.297734382460715,15096815.911927294,0.0,202822607.0117282,0.788365098653209
0.005257142324020617,0.29772561845455514,15096369.570851749,0.0,202822580.72670436,0.8165791484386111
0.005654306441382758,0.30503670903319463,15467076.022898177,0.0,202822487.4562887,0.8509755113610538
0.005969785113622854,0.30641331285234025,15536868.267396603,0.0,202822365.94444287,0.8775129526897759
0.006366949230984995,0.3135096923369994,15896677.757637845,0.0,202822153.7795407,0.9100097841178252
0.006866949230984996,0.32175304317556525,16314632.340999141,0.0,202821793.7581032,0.9496257404742692
0.007264113348347137,0.3279395463380271,16628292.322949965,0.0,202821434.72638923,0.9801684432166797
0.007764113348347137,0.3301906913355172,16742392.618850047,0.0,202820891.78386405,1.0175493934869266
0.00839357605424422,0.3396914459254205,17224060.361228544,0.0,202820065.8901502,1.063093424106735
0.00889357605424422,0.3468941682322304,17589207.94415955,0.0,202819298.275252,1.0981904618365375
0.009523038760141303,0.35549720304056914,18025325.126346108,0.0,202818193.47297725,1.141131576849457
0.01031548535637186,0.3657919015818349,18547166.234737772,0.0,202816586.74817222,1.193437177162339
0.010944948062268943,0.3737887204776326,18952503.107052825,0.0,202815142.01750168,1.2337369341815771
0.0117373946584995,0.384319094147536,19486238.17910503,0.0,202813115.20394528,1.283031621440849
0.012366857364396583,0.39099254565174935,19824430.824094623,0.0,202811343.024958,1.3211503212013431
0.01315930396062714,0.39926819352960324,20243786.964930307,0.0,202808911.83413893,1.3679278075305223
0.014156935118111579,0.4094018422307132,20757240.52422082,0.0,202805540.99239585,1.4250796698622499
0.014949381714342135,0.41722688650806516,21153676.748860452,0.0,202802623.0610768,1.4692222766519538
0.015947012871826576,0.4265647906909815,21626691.468804866,0.0,202798655.12361988,1.523329098246402
0.017202956087581368,0.44295139459332933,22456883.481192425,0.0,202793207.15817985,1.5893535390812028
0.01820058724506581,0.44993889836430007,22810612.183107473,0.0,202788532.0965382,1.640294246164997
0.0194565304608206,0.4580758360089511,23222409.332775775,0.0,202782225.18877417,1.7026671821691874
0.02103766929090479,0.46741397284950426,23694808.816933583,0.0,202773645.57574084,1.7786758090861154
0.02229361250665958,0.4742978099647323,24042908.49165924,0.0,202766346.2620417,1.8372409129758007
0.02387475133674377,0.4821724739837925,24440910.410724122,0.0,202756579.68435308,1.9088573297093172
0.025865287189511258,0.4911461913296101,24894165.306715395,0.0,202743425.44994977,1.9960138242951362
0.027446426019595446,0.5039694776722828,25542728.129744533,0.0,202732342.02769914,2.0630937606982775
0.029436961872362933,0.511880981589751,25941827.991397757,0.0,202717654.4893706,2.1450445826858493
0.03101810070244712,0.5178804807183156,26244299.233888693,0.0,202705452.0184817,2.2083357565207997
0.033008636555214604,0.5250209581713144,26604056.274696093,0.0,202689480.18654284,2.2859080305579944
0.035514572723350964,0.5332115456362907,27016298.46684674,0.0,202668518.24903917,2.380644387932825
0.037505108576118454,0.5290948342295575,26805436.833269313,0.0,202651283.65732092,2.453833521415419
0.04001104474425481,0.5392481000009253,27316823.17413768,0.0,202628980.41989067,2.543547660545673
0.04316583146665578,0.5542661668607476,28073604.20242814,0.0,202600164.90944344,2.653023721386961
0.04567176763479214,0.5623581671035766,28480190.668658137,0.0,202576879.53814378,2.737494231756841
0.0488265543571931,0.5724751647185822,28988328.06141081,0.0,202547323.25836995,2.8409330293621875
0.05279819553081451,0.5904564533202002,29893360.154005747,0.0,202510176.56534815,2.9670029376986315
0.055952982253215475,0.5971307857370224,30226924.18051263,0.0,202481097.2906336,3.0641546415140266
0.05992462342683688,0.6050242316301219,30621114.335128773,0.0,202445540.09102115,3.1829599024715605
0.06492462342683689,0.6140385940264905,31070864.305538997,0.0,202403331.698063,3.3275104646593423
0.06889626460045829,0.6205694635585121,31396562.098295204,0.0,202372588.03073475,3.438715029530884
0.0738962646004583,0.6388264663982757,32314783.31476247,0.0,202338412.7896533,3.574489867107053
0.0778679057740797,0.6430090729082157,32522694.412287008,0.0,202315617.50873992,3.679276323889164
0.08286790577407971,0.6475473128551418,32748640.45076066,0.0,202293421.9670625,3.807599820168862
0.08916253283305055,0.6446911458669318,32601637.715618316,0.0,202277558.32928714,3.963984573593976
0.09416253283305055,0.6522851029773497,32985414.49927642,0.0,202276055.9682555,4.084471853809678
0.10045715989202139,0.6609880506619906,33427848.052275684,0.0,202290180.70022374,4.231818018962973
0.10838162585432697,0.6709556990643982,33939771.67454502,0.0,202336885.85921073,4.41118646720132
0.1146762529132978,0.6647306297903417,33635316.81130781,0.0,202399680.7363398,4.549297643973499
0.12260071887560338,0.6751858636451528,34183086.0542081,0.0,202510673.84416205,4.718132524671791
0.13257703045044777,0.6978074235976086,35360744.68851308,0.0,202696294.09333363,4.92357817011759
0.14050149641275334,0.7018343796428524,35596365.34781809,0.0,202876156.42842844,5.081722965767518
0.15047780798759774,0.7071969318611294,35914629.20027084,0.0,203137924.2879595,5.2749605478135955
0.16303724014514565,0.7274616453135061,37012154.55642726,0.0,203513984.79834107,5.509859934447189
0.17301355171999006,0.7313038868830578,37267539.37728826,0.0,203841604.26729786,5.690421474729212
0.18557298387753796,0.7255661193647229,37054572.8018161,0.0,204279509.82198355,5.910691722237771
0.20138437217837987,0.7373446308489481,37761670.6606134,0.0,204852217.43398973,6.177948716771328
0.21394380433592777,0.74568117618671,38273608.70519676,0.0,205308166.15713248,6.383081714715913
0.2297551926367697,0.7380726189420999,37986741.59794974,0.0,205869940.83263624,6.633128252601795
0.2423146247943176,0.7469584497780832,38525468.84489222,0.0,206305819.8556447,6.825863004472708
0.2581260130951595,0.7683044011485797,39729330.8366163,0.0,206841615.26198617,7.061698517896142
0.27803137162283437,0.7698475655800522,39935031.44210375,0.0,207495786.06260398,7.348963482225834
0.29384275992367626,0.789516926050685,41054757.38569351,0.0,207999378.00476187,7.570198236907258
0.31374811845135114,0.7834927507298987,40861765.03286113,0.0,208613366.21069932,7.840531202656393
0.3388074801327148,0.7866645196683599,41173613.80875121,0.0,209357929.7366002,8.169046876875228
0.35871283866038967,0.7696249870237509,40392578.41348002,0.0,209933820.2086388,8.42145415075163
0.3837722003417533,0.7755126158344307,40840341.22142657,0.0,210649525.93960556,8.729289356081615
0.415320067565763,0.7957392440422734,42085366.724830806,0.0,211553556.21794638,9.102913975817382
0.44037942924712664,0.8011254184321313,42516546.12551876,0.0,212284095.08577153,9.38993625526736
0.47192729647113635,0.830799069031994,44284629.87474599,0.0,213214634.08159208,9.740074120002953
0.5116437082073505,0.8308092027319033,44529148.213540584,0.0,214389287.29781944,10.170245917636436
0.5616437082073505,0.7989151759411682,43114000.18726893,0.0,215862717.27272245,10.750628053235449
0.6116437082073506,0.768778254334939,41777996.33442242,0.0,217373455.08329484,11.390553851420249
0.6616437082073506,0.7556672732754108,41360188.248268545,0.0,218933330.63899615,12.090612562950167
0.7116437082073507,0.7611615631146653,41938126.81359135,0.0,220390144.9883043,12.852040252970372
0.7616437082073507,0.747296587383434,41409054.90229185,0.0,221647231.37452295,13.676038473055462
0.8116437082073508,0.7129434930789624,39736598.41669062,0.0,222943887.15201905,14.562846611473276
0.8616437082073508,0.6822010760392294,38285350.596371196,0.0,224481326.348243,15.51201084061639
0.9116437082073509,0.6599418151276992,37294447.10925594,0.0,226046880.22103545,16.523323333106916
0.9616437082073509,0.6406238425833937,36421908.995448634,0.0,227415257.28154513,17.597054773417582
1.0116437082073508,0.6413874683545265,36664149.25411744,0.0,228655226.75819635,18.73372994478586
1.0616437082073509,0.6335852865180926,36416098.55049504,0.0,229904950.92221588,19.93371881890096
1.111643708207351,0.6092262120440431,35230438.25710934,0.0,231312688.5260308,21.196702548862557
1.161643708207351,0.6081631869466464,35416416.98149394,0.0,232940222.24071905,22.52172348756258
1.211643708207351,0.5829662354684556,34180416.691938646,0.0,234527590.87820724,23.90763507404735
1.261643708207351,0.5692436978529171,33567201.11213874,0.0,235872272.20080307,25.35307270630346
1.311643708207351,0.5496310111520112,32599179.99021145,0.0,237244109.80293477,26.85640360608553
1.3616437082073511,0.5320911395166393,31777110.11704016,0.0,238884715.47116554,28.415945883994038
1.4116437082073512,0.5172153004657869,31103458.07954504,0.0,240545537.23785278,30.02991746682156
1.4616437082073512,0.5054410456368914,30576216.64876022,0.0,241976522.58519706,31.6963957900435
1.5116437082073513,0.49167807472640596,29909345.52581398,0.0,243324622.86390963,33.4132846010372
1.5616437082073513,0.4820482876277349,29495403.330641452,0.0,244750611.81770638,35.17828784533874
1.6116437082073514,0.4788444735128662,29465624.126637854,0.0,246139410.65644258,36.98878142372333
1.6616437082073514,0.4692726559379476,29019138.888000682,0.0,247354185.42552295,38.84180275683376
1.7116437082073515,0.46051164697856967,28598433.316529162,0.0,248405733.0941731,40.73406311509939
1.7616437082073515,0.4522007073796015,28195567.020068694,0.0,249407544.56980383,42.661959471994365
1.8116437082073515,0.45302012776634076,28395769.530144677,0.0,250724131.57581094,44.62170845844089
1.8616437082073516,0.44377452924277383,28000162.924392033,0.0,252381883.85592633,46.609378101472615
1.9116437082073516,0.43345202417894685,27413183.280361593,0.0,252975478.2646423,48.62087085382604
1.9616437082073517,0.4336373512817693,27220736.76034812,0.0,251092178.1058533,50.6504791695609
2.0116437082073517,0.4327292625953341,26663466.799324807,0.0,246467887.4676344,52.69245832258508
2.0616437082073515,0.4423416033315813,26494257.633837953,0.0,239581874.59005737,54.74260776863353
2.1116437082073514,0.45237266597912856,26312804.00906124,0.0,232664844.6108833,56.796747048421665
2.161643708207351,0.45649390470938567,25969906.05946621,0.0,227559718.0295254,58.85068215187469
2.211643708207351,0.4599559143506665,25673104.516066898,0.0,223265784.52467895,60.900288691340165
2.261643708207351,0.4646078804930028,25393206.948290534,0.0,218620544.45865533,62.941658808289446
2.3116437082073507,0.4692496016457502,25129463.089930452,0.0,214209776.6459173,64.97120087523241
2.3616437082073505,0.4679953440161357,24648821.323294505,0.0,210675782.47055942,66.98565783196507
2.4116437082073503,0.47157661228480136,24454824.871888254,0.0,207430345.22771576,68.98211620403023
2.46164370820735,0.4680342235874115,23862626.63183179,0.0,203939160.2513882,70.95805281028296
2.51164370820735,0.468054902574042,23504973.06968326,0.0,200873640.59574178,72.91132055529155
2.5616437082073498,0.4658086612072212,23155599.094041325,0.0,198842151.48794967,74.84014181092188
2.6116437082073496,0.4627598304063373,22818060.931406785,0.0,197234586.34143627,76.7431117007873
2.6616437082073494,0.4604917729694797,22503556.36790048,0.0,195474123.00364342,78.61914405434413
2.7116437082073492,0.45776478549810634,22213608.62618339,0.0,194105001.78175268,80.46744899179693
2.761643708207349,0.45291175620537827,21941381.166012146,0.0,193780628.26050878,82.28749752426695
2.811643708207349,0.4454470413241907,21674299.411257233,0.0,194629640.79254442,84.07898847923052
2.8616437082073487,0.4377907770200837,21425926.657364648,0.0,195764075.2800211,85.84182786303387
2.9116437082073485,0.44145580803586704,21304879.42747378,0.0,193042012.71935984,87.5761114730498
2.9616437082073483,0.45717856562262055,21350367.541951608,0.0,186801124.52669388,89.28208680011602
3.011643708207348,0.4303214896041387,21116739.994265992,0.0,196288035.84679633,90.96008265793635
3.061643708207348,0.3440297581749126,20279318.74047242,0.0,235785634.9178021,92.61048814217696
3.111643708207348,0.27079551870412616,19365897.383340303,0.0,286059348.0426044,94.23393278314452
3.1616437082073476,0.2336720408864895,18983391.458348155,0.0,324957857.79642653,95.83162733931276
3.2116437082073475,0.22221979207020187,19292932.17478712,0.0,347276576.853105,97.40537765410251
3.2616437082073473,0.22870815042464404,20217486.024037376,0.0,353594500.0035972,98.95713917442349
3.311643708207347,0.24537095276230805,21564480.2052336,0.0,351540880.65384346,100.48878196104951
3.361643708207347,0.26534371256966466,23095678.3487959,0.0,348162436.18709815,102.00195297548704
3.4116437082073467,0.2879286678430652,24661514.151305724,0.0,342605886.882336,103.49804086358661
3.4616437082073466,0.31105864093873264,26183716.878324345,0.0,336704575.0512566,104.97819752950481
3.5116437082073464,0.3168146576432342,27603765.477693107,0.0,348516267.30954826,106.44336453954689
3.561643708207346,0.29517892004116625,28865210.602438465,0.0,391155446.9867003,107.8943252109458
3.611643708207346,0.268812225094212,30005984.74938662,0.0,446497323.38431066,109.33185962032232
3.661643708207346,0.25345045477727013,31171643.735457096,0.0,491956406.4361288,110.75693306091625
3.7116437082073457,0.25307753920235554,32547481.70252335,0.0,514427029.8360861,112.17073930094183
3.7616437082073455,0.26964449820742303,34271385.85292842,0.0,508393623.1706873,113.57457888045123
3.8116437082073453,0.2976550210483565,36319102.30027708,0.0,488069741.5734403,114.96966753412272
3.861643708207345,0.32870560619072936,38533906.6281096,0.0,468916938.4686495,116.35697081249009
3.911643708207345,0.3582486606968101,40725889.76093049,0.0,454722032.25231063,117.73715037864663
3.961643708207345,0.38330038064661465,42745333.99608407,0.0,446076614.1058786,119.1106287507266
4.011643708207345,0.4035052397836039,44544523.157829024,0.0,441575660.1497203,120.48066001887914
4.061643708207344,0.420606643517017,46141218.29708897,0.0,438806367.0251769,121.85015715994321
4.111643708207344,0.43944817473969056,47607872.06953316,0.0,433342312.52851546,123.21886024456076
4.161643708207344,0.4640266354778251,49018296.57782391,0.0,422547266.29946995,124.58645869075671
4.211643708207344,0.48873539974981134,50330860.39608707,0.0,411927275.3465532,125.95259066555593
4.261643708207344,0.5064098258561723,51461074.83231761,0.0,406477696.164871,127.31684135920374
4.3116437082073436,0.520761440820336,52422143.85241891,0.0,402657645.0809435,128.67874946589137
4.361643708207343,0.5364439285904016,53264335.17228074,0.0,397166095.71659744,130.0378349473092
4.411643708207343,0.5382841343500454,53099034.17445967,0.0,394579968.3549985,131.39362278405284
4.461643708207343,0.5485153453000854,54565129.182545684,0.0,397911414.1479038,132.7456502151718
4.511643708207343,0.5466938035951484,54400492.77228558,0.0,398032627.5113344,134.09348336814247
4.561643708207343,0.5730106050208678,55540695.91186887,0.0,387711469.38787425,135.4367271441713
4.6116437082073425,0.5952604475133072,56036998.54488943,0.0,376554489.9143443,136.77502164964304
4.661643708207342,0.5961946392686279,55656438.2155969,0.0,373411195.26919955,138.10801642797853
4.711643708207342,0.6126402715958054,56755270.172640115,0.0,370561798.1971965,139.4353511661997
4.761643708207342,0.6322918909043364,56978567.110545255,0.0,360457364.26606125,140.7566847953648
4.811643708207342,0.653640550159928,57156336.882298626,0.0,349772283.058718,142.07170799607036
4.861643708207342,0.6550702904020431,56623401.83982059,0.0,345754662.78630054,143.38012678670373
4.911643708207341,0.6610845222078261,57192782.8674075,0.0,346054284.7162755,144.68165408332143
4.961643708207341,0.6574546858109431,56989947.775579534,0.0,346730802.9315194,145.97602346579757
5.0,0.6545561991327822,56674735.11881881,0.0,346339918.21577334,146.96396683032933
